iter	Passed	Remaining
0	10	21131
1	19	19683
2	27	18335
3	35	17860
4	47	18836
5	57	19162
6	65	18642
7	77	19339
8	87	19289
9	96	19176
10	106	19336
11	118	19591
12	130	19980
13	138	19706
14	154	20476
15	164	20398
16	172	20099
17	184	20321
18	193	20199
19	202	20064
20	214	20240
21	224	20153
22	234	20136
23	243	20049
24	252	19909
25	262	19899
26	271	19851
27	282	19886
28	290	19733
29	321	21081
30	340	21597
31	349	21516
32	358	21388
33	376	21792
34	388	21790
35	399	21777
36	408	21648
37	417	21575
38	427	21497
39	435	21339
40	445	21302
41	455	21237
42	463	21106
43	475	21140
44	483	21021
45	492	20916
46	502	20874
47	511	20812
48	521	20764
49	530	20688
50	540	20658
51	551	20657
52	559	20565
53	568	20480
54	576	20392
55	584	20298
56	592	20203
57	600	20121
58	609	20039
59	616	19919
60	623	19824
61	632	19782
62	640	19698
63	647	19589
64	655	19500
65	662	19406
66	669	19318
67	677	19261
68	686	19221
69	693	19123
70	701	19048
71	709	18994
72	717	18932
73	724	18855
74	733	18819
75	743	18826
76	751	18756
77	758	18696
78	767	18656
79	774	18598
80	782	18527
81	792	18541
82	801	18518
83	810	18491
84	819	18465
85	827	18412
86	835	18372
87	844	18354
88	853	18324
89	862	18307
90	871	18284
91	880	18260
92	889	18242
93	898	18220
94	906	18185
95	917	18197
96	927	18191
97	935	18151
98	946	18166
99	954	18135
100	963	18114
101	972	18105
102	982	18101
103	993	18121
104	1003	18104
105	1012	18095
106	1023	18100
107	1031	18077
108	1045	18139
109	1061	18230
110	1078	18348
111	1089	18369
112	1106	18473
113	1121	18557
114	1139	18675
115	1156	18786
116	1172	18872
117	1188	18951
118	1202	19011
119	1213	19008
120	1230	19111
121	1239	19085
122	1248	19046
123	1257	19026
124	1264	18972
125	1271	18912
126	1293	19070
127	1300	19015
128	1308	18983
129	1316	18941
130	1323	18888
131	1334	18882
132	1342	18839
133	1348	18784
134	1359	18778
135	1367	18745
136	1376	18713
137	1383	18662
138	1392	18638
139	1399	18599
140	1406	18545
141	1413	18498
142	1420	18451
143	1428	18410
144	1436	18378
145	1443	18335
146	1450	18288
147	1459	18259
148	1467	18231
149	1474	18187
150	1481	18145
151	1491	18130
152	1499	18096
153	1506	18064
154	1516	18045
155	1523	18012
156	1531	17978
157	1540	17964
158	1548	17932
159	1556	17897
160	1564	17871
161	1572	17843
162	1580	17812
163	1588	17780
164	1596	17756
165	1603	17714
166	1610	17679
167	1620	17676
168	1628	17642
169	1635	17607
170	1643	17582
171	1651	17547
172	1658	17510
173	1665	17475
174	1673	17453
175	1680	17416
176	1687	17383
177	1700	17409
178	1707	17369
179	1715	17348
180	1725	17341
181	1733	17311
182	1740	17277
183	1749	17267
184	1757	17242
185	1764	17204
186	1772	17180
187	1779	17148
188	1786	17117
189	1794	17096
190	1801	17065
191	1809	17035
192	1817	17016
193	1825	16995
194	1832	16966
195	1840	16942
196	1849	16923
197	1855	16890
198	1863	16860
199	1871	16839
200	1878	16814
201	1886	16790
202	1894	16768
203	1901	16739
204	1908	16707
205	1916	16694
206	1924	16671
207	1931	16642
208	1938	16611
209	1947	16597
210	1954	16574
211	1963	16563
212	1971	16537
213	1980	16532
214	1988	16507
215	1995	16480
216	2003	16458
217	2010	16436
218	2018	16417
219	2026	16397
220	2034	16380
221	2041	16353
222	2052	16358
223	2060	16340
224	2069	16322
225	2081	16336
226	2090	16328
227	2101	16329
228	2109	16315
229	2120	16318
230	2130	16317
231	2138	16298
232	2147	16286
233	2156	16278
234	2164	16260
235	2175	16263
236	2185	16256
237	2193	16238
238	2203	16233
239	2212	16228
240	2222	16218
241	2231	16210
242	2239	16189
243	2246	16165
244	2254	16146
245	2262	16131
246	2270	16111
247	2278	16099
248	2288	16092
249	2296	16077
250	2306	16073
251	2316	16070
252	2324	16051
253	2334	16048
254	2343	16036
255	2351	16020
256	2361	16015
257	2371	16015
258	2380	16003
259	2389	15993
260	2397	15974
261	2404	15952
262	2412	15936
263	2419	15913
264	2427	15890
265	2436	15882
266	2445	15869
267	2453	15855
268	2461	15839
269	2471	15835
270	2479	15817
271	2488	15810
272	2497	15799
273	2507	15796
274	2519	15802
275	2527	15788
276	2537	15785
277	2548	15784
278	2556	15766
279	2563	15749
280	2573	15740
281	2581	15724
282	2590	15714
283	2598	15698
284	2606	15684
285	2614	15669
286	2622	15655
287	2629	15632
288	2637	15616
289	2646	15602
290	2654	15586
291	2661	15568
292	2670	15557
293	2678	15544
294	2686	15527
295	2694	15509
296	2703	15503
297	2711	15485
298	2719	15468
299	2726	15452
300	2733	15431
301	2740	15409
302	2748	15392
303	2756	15379
304	2764	15365
305	2773	15355
306	2781	15339
307	2788	15318
308	2796	15306
309	2806	15297
310	2812	15276
311	2820	15258
312	2828	15247
313	2836	15230
314	2843	15213
315	2852	15201
316	2860	15187
317	2868	15171
318	2875	15155
319	2884	15142
320	2891	15124
321	2900	15113
322	2908	15099
323	2915	15079
324	2922	15062
325	2931	15054
326	2939	15038
327	2946	15017
328	2953	15001
329	2961	14988
330	2969	14973
331	2978	14964
332	2985	14945
333	2993	14929
334	3000	14915
335	3008	14901
336	3015	14880
337	3022	14863
338	3031	14853
339	3039	14839
340	3046	14822
341	3054	14805
342	3062	14796
343	3069	14778
344	3077	14762
345	3086	14754
346	3094	14740
347	3101	14722
348	3109	14710
349	3116	14691
350	3123	14675
351	3131	14660
352	3139	14647
353	3146	14628
354	3152	14608
355	3166	14624
356	3174	14609
357	3182	14596
358	3192	14594
359	3200	14578
360	3208	14566
361	3217	14556
362	3225	14545
363	3233	14532
364	3242	14523
365	3250	14511
366	3258	14497
367	3268	14492
368	3276	14482
369	3284	14470
370	3297	14477
371	3305	14467
372	3314	14458
373	3327	14464
374	3336	14460
375	3347	14459
376	3358	14456
377	3366	14447
378	3377	14447
379	3386	14437
380	3398	14439
381	3406	14430
382	3415	14421
383	3426	14420
384	3435	14412
385	3445	14407
386	3454	14399
387	3466	14403
388	3476	14397
389	3485	14389
390	3496	14387
391	3504	14374
392	3512	14362
393	3521	14355
394	3531	14350
395	3539	14338
396	3551	14341
397	3562	14339
398	3570	14327
399	3579	14317
400	3587	14303
401	3594	14287
402	3602	14276
403	3609	14260
404	3617	14245
405	3625	14233
406	3632	14218
407	3639	14200
408	3645	14182
409	3653	14170
410	3661	14156
411	3669	14143
412	3676	14127
413	3685	14120
414	3692	14103
415	3699	14086
416	3707	14074
417	3715	14062
418	3722	14047
419	3731	14036
420	3739	14024
421	3746	14010
422	3754	13998
423	3763	13988
424	3770	13972
425	3777	13956
426	3786	13948
427	3793	13933
428	3800	13916
429	3807	13900
430	3816	13892
431	3823	13877
432	3830	13862
433	3839	13854
434	3848	13845
435	3856	13832
436	3865	13827
437	3873	13813
438	3881	13802
439	3890	13792
440	3897	13777
441	3905	13766
442	3914	13759
443	3922	13747
444	3929	13731
445	3937	13719
446	3945	13708
447	3954	13700
448	3965	13698
449	3973	13686
450	3981	13674
451	3991	13669
452	3999	13658
453	4007	13645
454	4015	13635
455	4024	13628
456	4032	13616
457	4041	13605
458	4050	13598
459	4057	13585
460	4064	13569
461	4073	13559
462	4081	13549
463	4089	13539
464	4098	13528
465	4105	13513
466	4113	13503
467	4121	13492
468	4129	13479
469	4137	13469
470	4146	13461
471	4156	13455
472	4164	13443
473	4174	13439
474	4183	13429
475	4192	13421
476	4202	13416
477	4210	13407
478	4220	13402
479	4229	13391
480	4236	13380
481	4245	13371
482	4253	13358
483	4260	13343
484	4266	13327
485	4275	13319
486	4282	13304
487	4289	13289
488	4296	13275
489	4307	13275
490	4315	13262
491	4323	13250
492	4330	13236
493	4337	13223
494	4347	13218
495	4355	13207
496	4363	13194
497	4370	13182
498	4379	13172
499	4386	13158
500	4393	13145
501	4401	13135
502	4409	13122
503	4416	13108
504	4423	13096
505	4431	13084
506	4438	13070
507	4447	13062
508	4456	13053
509	4463	13039
510	4471	13028
511	4478	13016
512	4485	13003
513	4492	12989
514	4501	12980
515	4509	12967
516	4515	12953
517	4524	12945
518	4532	12934
519	4541	12924
520	4549	12914
521	4557	12903
522	4564	12891
523	4573	12881
524	4581	12871
525	4599	12888
526	4621	12917
527	4635	12923
528	4644	12916
529	4652	12902
530	4659	12891
531	4667	12880
532	4674	12867
533	4682	12854
534	4690	12843
535	4698	12833
536	4705	12819
537	4713	12809
538	4721	12797
539	4728	12784
540	4736	12774
541	4746	12767
542	4753	12753
543	4760	12741
544	4769	12734
545	4776	12720
546	4783	12706
547	4792	12697
548	4799	12685
549	4806	12671
550	4814	12661
551	4822	12649
552	4829	12637
553	4837	12625
554	4846	12617
555	4853	12604
556	4860	12591
557	4869	12584
558	4878	12574
559	4884	12561
560	4894	12555
561	4902	12543
562	4909	12530
563	4917	12521
564	4925	12510
565	4933	12499
566	4941	12488
567	4948	12476
568	4955	12463
569	4963	12451
570	4971	12442
571	4978	12429
572	4985	12415
573	4994	12408
574	5002	12398
575	5010	12386
576	5018	12376
577	5027	12369
578	5035	12358
579	5044	12350
580	5052	12340
581	5062	12333
582	5073	12330
583	5080	12319
584	5087	12306
585	5097	12300
586	5106	12293
587	5115	12283
588	5124	12276
589	5133	12268
590	5144	12264
591	5154	12259
592	5163	12250
593	5173	12244
594	5182	12236
595	5190	12227
596	5199	12218
597	5208	12211
598	5215	12199
599	5223	12187
600	5231	12177
601	5238	12165
602	5245	12153
603	5253	12141
604	5262	12133
605	5269	12121
606	5277	12111
607	5286	12102
608	5293	12090
609	5300	12078
610	5308	12068
611	5316	12057
612	5323	12044
613	5330	12033
614	5338	12021
615	5346	12011
616	5355	12004
617	5365	11999
618	5373	11987
619	5382	11980
620	5391	11973
621	5400	11964
622	5409	11955
623	5417	11945
624	5425	11936
625	5435	11929
626	5443	11919
627	5450	11907
628	5460	11901
629	5468	11892
630	5478	11885
631	5488	11880
632	5497	11872
633	5505	11862
634	5514	11855
635	5523	11845
636	5530	11833
637	5539	11824
638	5547	11816
639	5555	11805
640	5563	11794
641	5571	11786
642	5579	11775
643	5587	11765
644	5597	11759
645	5605	11748
646	5614	11740
647	5624	11734
648	5632	11725
649	5641	11716
650	5650	11709
651	5658	11698
652	5668	11692
653	5676	11681
654	5683	11671
655	5692	11662
656	5700	11652
657	5707	11641
658	5716	11632
659	5724	11623
660	5733	11614
661	5741	11604
662	5756	11607
663	5763	11596
664	5771	11586
665	5779	11576
666	5787	11566
667	5794	11554
668	5802	11545
669	5810	11535
670	5818	11523
671	5826	11514
672	5834	11504
673	5841	11492
674	5850	11484
675	5857	11472
676	5865	11461
677	5871	11449
678	5880	11440
679	5888	11430
680	5895	11419
681	5903	11408
682	5911	11398
683	5918	11387
684	5927	11378
685	5935	11369
686	5943	11359
687	5951	11349
688	5959	11339
689	5966	11328
690	5974	11318
691	5984	11311
692	5990	11298
693	5998	11288
694	6007	11279
695	6014	11268
696	6022	11257
697	6031	11251
698	6040	11242
699	6051	11237
700	6061	11231
701	6068	11220
702	6080	11217
703	6088	11207
704	6097	11200
705	6108	11195
706	6116	11187
707	6124	11176
708	6134	11170
709	6142	11160
710	6150	11150
711	6157	11139
712	6165	11128
713	6172	11117
714	6181	11108
715	6188	11098
716	6195	11086
717	6204	11077
718	6212	11068
719	6219	11056
720	6227	11047
721	6236	11038
722	6244	11028
723	6251	11017
724	6259	11008
725	6266	10997
726	6274	10987
727	6283	10978
728	6291	10968
729	6298	10958
730	6306	10947
731	6313	10937
732	6322	10928
733	6330	10919
734	6342	10916
735	6350	10906
736	6357	10895
737	6365	10885
738	6373	10875
